1.05709
1.03189
0.957322
0.808193
0.607492
0.41057
0.126703
-0.0554199
-0.195407
-0.300395
-0.328189
-0.4186
-0.390296
-0.417279
-0.344878
-0.314843
-0.228286
-0.274377
-0.20269
-0.195102
-0.183059
-0.085884
-0.123213
-0.104667
-0.146075
-0.0925736
-0.107876
-0.0846478
-0.138904
-0.134945
-0.0906574
-0.0507932
-0.0588432
-0.0693135
-0.0993539
-0.0503081
-0.10372
-0.029777
-0.0524372
-0.0356904
0.0121022
0.00484893
0.0356846
0.0255133
0.00460801
0.0181042
0.0361968
0.0215988
0.0560972
0.0410982
0.0941758
0.0979346
0.079262
0.126825
0.117208
0.18554
0.164203
0.217279
0.209547
0.268204
0.28839
0.238286
0.284941
0.271038
0.280182
0.334271
0.312916
0.377175
0.317378
0.338456
0.41167
0.414061
0.354051
0.383242
0.38708
0.350398
0.417903
0.348792
0.408119
0.372379
0.355538
0.337034
0.347199
0.278901
0.252465
0.260541
0.218843
0.230069
0.272449
0.218428
0.196831
0.166441
0.148452
0.12736
0.159614
0.0949909
0.105511
0.0258352
0.0254529
0.00315392
-0.00684917
-0.0128663
0.00327749
-0.0368213
-0.0118065
-0.00548304
0.00557474
-0.0131483
0.00279469
-0.0797317
-0.0898533
-0.0196876
-0.026277
-0.0821092
-0.109258
-0.111434
-0.127234
-0.0489794
-0.0487972
-0.0409655
-0.0984602
-0.0883242
-0.0698282
-0.0672356
-0.0370108
-0.0731231
-0.0414042
-0.0409639
-0.0335102
-0.105856
-0.0373699
-0.11998
-0.0433293
-0.118445
-0.0385856
-0.0638764
-0.0662472
-0.0784349
-0.0728049
-0.0686309
-0.0529968
-0.0646372
-0.0994807
-0.08129
-0.0546753
-0.0652122
-0.10283
-0.0317225
-0.0297632
-0.0803699
-0.0958906
-0.0250202
-0.0779919
-0.0817671
-0.021663
-0.0265957
-0.0794671
-0.0148286
-0.0911293
-0.0170744
-0.0192697
-0.0553742
-0.0869765
-0.0905947
-0.0804298
-0.0241351
-0.0472178
-0.044256
-0.00198412
-0.071456
-0.0784332
-0.0468332
-0.0678039
-0.0653765
-0.0603927
-0.0730469
-0.0681892
-0.0475842
0.0149086
0.0032747
-0.00789419
-0.0207745
-0.0540418
-0.0515096
-0.0712805
0.0115004
0.00474225
0.0150994
-0.0279979
0.0277821
0.00510383
-0.0268451
0.0569936
-0.00111747
0.017505
0.0284354
0.0990655
0.0409785
0.111765
0.135736
0.145905
0.168113
0.176272
0.202055
0.178303
0.24984
0.230443
0.275811
0.299416
0.295794
0.266519
0.292037
0.288482
0.298743
0.254478
0.285021
0.276568
0.302577
0.26404
0.211296
0.192101
0.22916
0.168253
0.17451
0.187332
0.162306
0.108991
0.140198
0.083186
0.0423746
0.092988
0.0801056
0.00597107
0.0621964
-0.0111271
0.0628459
0.0567971
0.0202262
0.0441058
-0.0312561
-0.0264782
-0.0450729
0.0157472
-0.0283381
0.0106559
-0.0208422
-0.0561934
-0.0161129
-0.0485544
-0.10496
-0.171612
-0.198133
-0.153875
-0.148194
-0.0981805
-0.0514835
-0.029596
0.0592035
0.223771
0.446016
0.606553
0.801597
1.01103
1.07868
1.16826
1.17862
1.17729
1.02647
0.845231
0.539898
0.392265
0.159348
0.0186038
-0.134455
-0.179222
-0.268269
-0.249139
-0.221633
-0.270637
-0.137644
-0.176736
-0.134624
-0.0475979
-0.0522323
0.0325607
0.0149923
0.0494218
-0.02168
-0.0215819
0.0650975
0.0473578
-0.0209624
-0.00955567
-0.00653075
0.0143201
0.0761722
0.00502274
0.0560495
0.0959111
0.10715
0.105911
0.0272935
0.07085
0.0687883
0.0886527
0.147241
0.0944072
0.134382
0.169255
0.172937
0.204405
0.133757
0.228825
0.158808
0.245592
0.261146
0.224256
0.310613
0.256439
0.349201
0.298613
0.360896
0.37299
0.340956
0.369689
0.375276
0.462347
0.435892
0.488518
0.425128
0.476583
0.497884
0.46487
0.512435
0.447235
0.451645
0.464213
0.451296
0.455704
0.512825
0.468059
0.455311
0.442102
0.412154
0.412784
0.421408
0.375292
0.320963
0.388797
0.282587
0.325582
0.316291
0.234507
0.285984
0.282334
0.229007
0.201174
0.21884
0.152303
0.208383
0.193804
0.135653
0.159117
0.0816958
0.0952811
0.128301
0.0948475
0.0637779
0.0981104
0.0455768
0.0468147
0.0396148
0.0223081
0.0728687
0.070518
0.0133796
0.0718142
0.00514937
0.0654529
-0.0130511
0.0648078
0.0563844
0.0185013
-0.0309349
0.0446909
0.00261071
0.0514428
0.00993122
0.0273379
0.00473576
0.0394172
-0.000720988
0.0630551
0.0536118
0.0467608
-0.000248543
0.0576933
0.00857104
0.0515519
0.0540369
0.0729033
-0.0218543
-0.00206016
0.0179587
0.0601856
0.0146837
-0.0111139
0.068686
-0.00405999
0.0373303
0.0600369
0.00546995
0.0784843
0.0245751
0.00351675
-1.70902e-006
0.0518801
0.0700989
0.0599926
0.00974994
0.0826814
-0.0109719
0.0195188
0.0529135
-0.00824281
-0.007971
0.0435478
0.0526485
0.0117547
0.0512496
0.0420786
0.0410336
0.0603251
0.0281326
0.0528158
0.0228494
0.00219762
0.0600942
-0.00230304
0.0345189
0.00473495
0.0284882
0.0227495
0.0762183
0.0776398
0.0823956
0.0514819
0.0752665
0.0625217
0.127979
0.0866576
0.0627879
0.149017
0.0781272
0.110185
0.116073
0.147951
0.159351
0.223893
0.231729
0.282708
0.235206
0.260463
0.281741
0.338522
0.316722
0.311762
0.322023
0.376348
0.341389
0.321276
0.334169
0.370527
0.341187
0.260272
0.275785
0.299626
0.22609
0.224106
0.192789
0.153506
0.154739
0.163526
0.170367
0.133623
0.0853897
0.13987
0.0553307
0.0495856
0.115222
0.0886773
0.0645078
0.0692695
0.0861564
-1.03161e-005
0.0475917
0.0302485
-0.00628141
0.0543904
0.0544251
0.0381643
-0.0367818
-0.0370479
-0.00788209
-0.0544278
-0.124563
-0.166894
-0.155445
-0.103113
-0.105096
0.00897293
0.0196341
0.144262
0.365165
0.507587
0.753721
0.934796
1.05584
1.13321
1.18344
1.15488
1.02709
0.808835
0.610747
0.4585
0.257736
0.079514
-0.0958608
-0.195657
-0.241313
-0.23855
-0.237183
-0.184095
-0.11077
-0.125597
-0.00744416
-0.0164368
0.0151982
-0.0130707
0.0039721
0.000501013
0.0291067
0.0807587
0.100807
0.0105334
0.0175403
0.0801265
0.0722449
0.0425245
0.11144
0.0720734
0.0906569
0.0663409
0.053689
0.138898
0.148389
0.158718
0.0899777
0.113183
0.157159
0.0990129
0.16676
0.153696
0.175997
0.159398
0.176427
0.231639
0.230414
0.2344
0.265667
0.276894
0.342314
0.31181
0.360413
0.329365
0.342905
0.350285
0.408989
0.423412
0.467263
0.481785
0.476316
0.466181
0.501036
0.469763
0.468194
0.448689
0.500214
0.482287
0.419763
0.479252
0.502401
0.448058
0.448447
0.447737
0.369795
0.367684
0.422139
0.39688
0.395381
0.314077
0.351815
0.329544
0.312278
0.25419
0.246213
0.265289
0.215907
0.139632
0.149664
0.120358
0.162401
0.0813792
0.107406
0.119098
0.0944097
0.0460507
0.0266793
0.0275082
0.0372352
0.0857928
0.0554382
-0.00377505
0.0514358
0.0105249
0.0357462
-0.00572786
0.0128042
0.0544194
0.0189562
0.0389491
-0.0159913
-0.0100093
0.0185449
0.0435578
-0.00917909
-0.0244751
0.00225469
0.0185056
-0.0206751
-0.0391973
-0.0211869
-0.053553
-0.0169588
0.00870513
-0.00964239
0.0114009
-0.0301313
0.0104082
0.0314043
0.0105495
-0.0466272
0.00669834
-0.0222038
-0.00943427
-0.0197039
0.0365029
-0.0479191
-0.00332033
-0.0126843
-0.0434848
-0.006835
-0.0273584
0.0188271
-0.0529826
0.00299113
0.0044944
-0.0510702
0.0254779
0.0270636
0.0167622
0.0346793
0.00568079
0.0405327
0.014562
-0.0533001
-0.0580984
0.0240794
-0.0254811
-0.0320423
-0.0480506
-0.040635
-0.0203161
0.0251547
0.0178077
0.0406302
0.0133786
-0.0227232
-0.00274939
0.0188438
0.0385918
-0.0399233
-0.0286517
-0.0154294
-0.011305
0.0454087
0.0308305
-0.0295723
0.026947
0.0340297
0.0312483
0.0938303
0.112316
0.0812347
0.0966441
0.0776294
0.149973
0.110337
0.16068
0.182165
0.182177
0.228119
0.224018
0.258502
0.26551
0.297731
0.284028
0.268187
0.272357
0.269476
0.301591
0.241906
0.256758
0.198589
0.237542
0.160378
0.135041
0.140378
0.123608
0.090834
0.080106
0.13772
0.0835953
0.0557779
0.0181436
0.0786763
0.0417334
0.0302114
-0.0306419
-0.008287
0.019179
-0.0553487
0.00894566
0.0124253
-0.0684698
-0.0759509
-0.0818399
-0.0495199
-0.0181026
-0.0873414
-0.0996855
-0.155586
-0.130713
-0.168461
-0.169714
-0.236224
-0.145999
-0.149028
-0.113311
0.0218272
0.208633
0.390777
0.48827
0.769871
0.93449
1.02679
1.07261
1.04603
0.946909
0.769632
0.648165
0.397981
0.230268
0.0338041
-0.137
-0.24368
-0.357132
-0.366045
-0.348103
-0.327748
-0.294282
-0.342259
-0.210675
-0.21465
-0.223731
-0.189031
-0.155478
-0.154745
-0.089327
-0.0694677
-0.0687543
-0.0838918
-0.0688603
-0.136419
-0.0918819
-0.135724
-0.0573294
-0.100836
-0.0488401
-0.0551564
-0.0893755
-0.096898
-0.0784465
-0.060297
-0.0465234
-0.0517965
-0.00856517
-0.0722032
-0.0278534
-0.0363385
-0.00675353
0.000939115
-0.0177442
0.0621906
0.0748359
0.105462
0.0809168
0.116467
0.135438
0.12087
0.133751
0.187616
0.138034
0.246061
0.231162
0.19809
0.293988
0.261809
0.322393
0.339441
0.282505
0.318689
0.275459
0.297849
0.323673
0.370559
0.328311
0.352947
0.335162
0.36996
0.389489
0.330024
0.285445
0.279106
0.292265
0.276051
0.325449
0.270028
0.262272
0.193424
0.198118
0.232359
0.190104
0.212255
0.153903
0.123316
0.160447
0.10622
0.123059
0.0881108
0.00671515
0.00837925
-0.0139458
-0.0080465
-0.0128641
0.00840341
-0.00962034
-0.040262
-0.0569663
-0.0883959
-0.0579461
-0.0720649
-0.0643696
-0.0616535
-0.151568
-0.0977734
-0.143999
-0.0812864
-0.0783559
-0.0893909
-0.172757
-0.126075
-0.14426
-0.175182
-0.158647
-0.178589
-0.162146
-0.0923023
-0.10554
-0.182587
-0.0895984
-0.0932822
-0.181442
-0.152722
-0.113573
-0.18156
-0.159851
-0.15288
-0.0995175
-0.130125
-0.170174
-0.167229
-0.140142
-0.164101
-0.085024
-0.165922
-0.155565
-0.175105
-0.088137
-0.104563
-0.155684
-0.141467
-0.115333
-0.11315
-0.16726
-0.155614
-0.155362
-0.0864957
-0.113625
-0.150831
-0.102907
-0.159938
-0.168908
-0.112583
-0.132534
-0.124384
-0.13956
-0.115767
-0.139436
-0.164546
-0.072037
-0.114513
-0.141294
-0.0743403
-0.150258
-0.10853
-0.144111
-0.0639622
-0.0653299
-0.109921
-0.141506
-0.0861605
-0.0804343
-0.106799
-0.069588
-0.0677247
-0.0923116
-0.0685825
-0.0963691
-0.0626182
-0.0465065
-0.0353699
-0.111887
-0.0554059
-0.0350809
-0.0818538
-0.0463368
-0.0501221
-0.0231486
0.0150036
-0.0127759
0.065035
0.0480889
0.102857
0.0755904
0.0836325
0.132615
0.155198
0.185531
0.114658
0.198683
0.146834
0.220626
0.154972
0.193181
0.227075
0.197382
0.160786
0.160624
0.166683
0.193919
0.113636
0.133248
0.0560907
0.110579
0.0360105
0.0508432
0.0421815
-0.00928491
0.000156675
0.0294989
-0.0392357
-0.0808022
-0.0369678
-0.08939
-0.0515403
-0.0855718
-0.057558
-0.12557
-0.10203
-0.0766267
-0.0427384
-0.0990343
-0.123528
-0.150872
-0.106488
-0.171086
-0.0995894
-0.170383
-0.154564
-0.175558
-0.224545
-0.273808
-0.231507
-0.23535
-0.180366
-0.115711
0.024128
0.164909
0.29339
0.455686
0.660761
0.803592
0.938002
1.09482
1.03936
1.02205
0.888899
0.649785
0.472424
0.299525
0.085729
-0.119283
-0.17335
-0.309485
-0.335024
-0.358461
-0.378707
-0.364884
-0.339887
-0.245406
-0.184173
-0.194377
-0.195367
-0.137307
-0.150363
-0.125018
-0.136097
-0.0731653
-0.100815
-0.0978709
-0.0705248
-0.126587
-0.0411974
-0.0595271
-0.0675616
-0.0693146
-0.0983499
-0.0278244
-0.0596512
-0.0633944
-0.0213776
-0.0222474
0.0146194
-0.0169037
-0.0516654
-0.0446247
-0.0303621
-0.0297594
0.0129424
0.0605637
0.0400756
0.0187042
0.0302702
0.110541
0.135973
0.0837432
0.127597
0.16042
0.159096
0.212458
0.243423
0.247482
0.289843
0.27724
0.28665
0.343715
0.264525
0.280998
0.380916
0.336395
0.374101
0.354465
0.420133
0.409609
0.353956
0.372842
0.36829
0.408764
0.329224
0.400332
0.31712
0.307062
0.34005
0.367851
0.351315
0.351958
0.264017
0.314947
0.23835
0.202248
0.276199
0.168596
0.1675
0.130265
0.122185
0.160013
0.0777317
0.143398
0.0702772
0.0687701
0.0771854
0.0900516
0.0139361
0.068976
0.0386282
-0.0414899
-0.0422394
-0.0503095
-0.0678473
0.00557009
-0.0874815
-0.00749999
-0.0917811
-0.0734418
-0.0898336
-0.0605661
-0.0624108
-0.0920985
-0.0472535
-0.125053
-0.101209
-0.0358839
-0.0461392
-0.128301
-0.0344184
-0.0913724
-0.079644
-0.0578445
-0.0753892
-0.0319663
-0.0763244
-0.0650015
-0.0947572
-0.0293961
-0.0381649
-0.115169
-0.0628144
-0.0367087
-0.0639153
-0.0452179
-0.045979
-0.107116
-0.0550515
-0.0273556
-0.0833257
-0.0666034
-0.0921468
-0.037279
-0.072198
-0.0156654
-0.0494379
-0.0743222
-0.0878395
-0.100022
-0.0481725
-0.0793323
-0.0463427
-0.100031
-0.0130809
-0.0842193
-0.0286712
-0.0879291
-0.0511388
-0.0235821
-0.043535
-0.0324216
0.000763913
-0.0697181
-0.0301823
-0.0174928
-0.00589079
-0.0230857
0.00768973
-0.0879031
-0.0791765
-0.0293632
-0.0513286
-0.0233332
-0.070568
-0.0237835
0.00602604
-0.0663696
-0.0415097
-0.0671297
-0.0555701
-0.00997343
0.0244876
0.00925279
-0.0598418
-0.0101579
0.00537453
-0.00747736
-0.0338049
0.0390496
0.04871
0.0290094
0.0459136
0.0682584
0.033905
0.0668644
0.102375
0.0908819
0.192789
0.196425
0.222048
0.233798
0.202696
0.216667
0.195975
0.283658
0.252164
0.245117
0.300017
0.255362
0.245647
0.326359
0.312583
0.305764
0.222135
0.220436
0.268035
0.248906
0.179418
0.165822
0.155416
0.141891
0.0896697
0.161438
0.130235
0.101928
0.120902
0.0243545
0.0520627
0.0441555
-0.00409286
0.0400272
0.010239
0.033611
0.0298747
-0.0127766
0.0374281
0.0284646
0.0467531
0.00467338
-0.0266836
-0.0577301
0.0109597
-0.0348495
-0.052304
-0.137649
-0.157761
-0.113628
-0.144009
-0.12737
-0.163111
-0.0523881
0.0283109
0.149005
0.214767
0.412477
0.665595
0.865149
0.950705
1.09397
1.13397
1.17427
1.07868
0.902572
0.706805
0.486521
0.273634
0.108442
0.00354372
-0.115698
-0.155963
-0.225072
-0.251783
-0.241697
-0.244247
-0.181036
-0.114646
-0.0851139
-0.0720707
-0.0523264
-0.0430877
0.0482713
0.00572644
0.052684
0.029552
0.0177491
0.0170766
0.0211248
0.00386425
0.0788704
0.033169
0.0120056
0.0448449
0.102199
0.0363817
0.0579266
0.0864148
0.0942079
0.127291
0.0621569
0.149303
0.167842
0.161135
0.108294
0.12108
0.151272
0.172465
0.214644
0.248569
0.257225
0.265253
0.259681
0.267812
0.300543
0.322283
0.285899
0.38891
0.362088
0.337629
0.380407
0.415302
0.435933
0.466242
0.466665
0.476738
0.478187
0.456883
0.512017
0.490943
0.488621
0.45495
0.526019
0.45481
0.511495
0.433262
0.496688
0.445652
0.445427
0.391851
0.40276
0.433419
0.436107
0.402694
0.325316
0.328429
0.36574
0.272996
0.32633
0.271409
0.298861
0.243274
0.225182
0.240283
0.1583
0.152856
0.126501
0.175721
0.14599
0.13597
0.13509
0.0637333
0.140052
0.0466544
0.116701
0.0275122
0.100773
0.0682951
0.0876507
0.0701021
0.0908231
0.0109668
-0.00363663
-0.0050657
0.0806775
0.0794727
0.0748236
0.0491798
-0.00655263
0.0437444
0.0192786
0.0486333
0.000685181
0.077866
-0.0113214
0.0607081
0.0479402
0.0194132
0.0696346
0.0193532
0.0263676
0.069633
0.0714849
0.00433593
0.0637121
0.0538372
0.0472737
0.0262852
0.000972597
-0.00843515
0.0120276
0.00529694
0.0145483
0.0847327
0.0504844
0.05097
0.0156899
0.0696456
-0.00721691
0.00450765
0.0570219
0.083309
0.0321794
0.0708722
0.0834363
0.00269777
0.0308359
0.0924428
0.0525819
0.0819262
0.082609
0.0702778
0.0929434
0.0684801
0.00599748
0.0287526
0.0199553
0.0164861
0.0308922
0.0275897
0.0240794
0.055711
0.0359489
0.0332001
0.0134128
0.0955106
0.0222572
0.0769362
0.0126342
0.104126
0.0680819
0.115775
0.0283169
0.101843
0.116449
0.111446
0.110071
0.116539
0.116367
0.142186
0.128901
0.131585
0.219885
0.166879
0.208648
0.21857
0.287441
0.296075
0.232356
0.305379
0.300272
0.274013
0.323284
0.327938
0.378937
0.313995
0.386878
0.335711
0.35954
0.287937
0.274707
0.330479
0.299116
0.284246
0.231806
0.245693
0.197306
0.23672
0.175022
0.147398
0.0970808
0.160699
0.129309
0.0890621
0.112414
0.0612087
0.0409614
0.0505983
0.0258673
0.108433
0.0873489
0.0495821
0.0372612
0.0640796
-0.000722863
-0.0170626
-0.012546
-0.0234258
0.0267468
-0.0774213
-0.12015
-0.141535
-0.130786
-0.0850471
-0.14618
-0.089419
-0.00638568
0.182057
0.3333
0.503287
0.694977
0.812034
0.983774
1.11685
1.21985
1.2063
1.07796
0.887204
0.674371
0.476215
0.327325
0.140093
-0.0231
-0.102639
-0.212617
-0.264598
-0.244652
-0.221173
-0.24861
-0.204597
-0.159655
-0.119456
-0.0862183
0.0275838
-0.0435701
0.00513587
0.0626459
0.0226122
-0.00407375
0.0771413
0.0764811
0.0490422
-0.00826359
0.00787612
-0.0057807
0.043516
0.0916733
0.0585803
0.0494312
0.0708833
0.0379032
0.0900475
0.0621322
0.100783
0.0812581
0.0700304
0.0730543
0.14909
0.170326
0.135465
0.12429
0.132485
0.228598
0.177681
0.246277
0.234076
0.281192
0.248856
0.285459
0.331952
0.342869
0.370424
0.35562
0.395353
0.425569
0.419106
0.363665
0.38832
0.454505
0.400004
0.494527
0.48042
0.507139
0.442378
0.485256
0.492839
0.450423
0.449172
0.455883
0.466568
0.44265
0.401251
0.437648
0.420363
0.354134
0.364931
0.312739
0.294219
0.330011
0.253572
0.248437
0.295235
0.251583
0.241656
0.252533
0.218996
0.196381
0.184457
0.115957
0.114535
0.0860869
0.066632
0.0608931
0.0890286
0.0530319
0.0553291
0.0100162
0.0422921
0.0522714
-0.027641
0.0586127
0.0160185
0.0460741
0.0294592
-0.0561697
-0.019142
-0.034482
-0.0539917
0.0156144
-0.0385262
-0.0354185
0.0143038
-0.0382008
-0.0315569
0.00949715
-0.0118751
-0.0151979
-0.00416646
-0.00111481
-0.0503998
-0.0813791
0.00903161
-0.072633
0.00410809
0.0135614
0.00442093
-0.0145311
-0.0261336
-0.0364427
-0.0484211
-0.0724758
-0.0479701
0.00380648
-0.0726922
-0.0667275
-0.0518599
0.00234343
-0.0248533
-0.0481713
-0.00211946
0.00777406
-0.0227694
-0.0237886
-0.00855427
-0.0463019
0.014361
-0.0675538
0.000224804
-0.0461031
-0.0675371
-0.0239454
-0.013725
-0.0173924
-0.00341316
-0.062199
-0.00100014
-0.000991557
0.00748556
-0.0235665
-0.0182761
-0.051284
-0.0279181
0.021758
-0.0637986
-0.0440179
-0.0753355
0.00451945
-0.00329083
0.00468617
-0.0345496
0.00848382
-0.00280307
0.0213193
-0.00381806
0.000896819
-0.0605633
0.0285009
-0.0341367
-0.0206085
-0.0220267
0.0218796
0.028991
0.0576229
0.0775938
0.0374605
0.117323
0.0735501
0.0743708
0.0961643
0.104101
0.164485
0.187752
0.164291
0.213259
0.203813
0.251529
0.222929
0.244602
0.223909
0.245859
0.264653
0.20787
0.207244
0.198332
0.180978
0.226547
0.19892
0.207702
0.1496
0.148948
0.100558
0.116048
0.129188
0.078277
0.103784
-0.00764983
0.0231428
0.0152717
0.025455
0.0135657
0.0354842
-0.0441366
-0.0221563
-0.0765887
-0.0616775
-0.0367129
-0.0452651
-0.0674833
-0.088848
-0.0757663
-0.0361807
-0.0712246
-0.128613
-0.12913
-0.104671
-0.158577
-0.251389
-0.212341
-0.20115
-0.201439
-0.159311
-0.0424554
0.0972025
0.184224
0.398442
0.600477
0.821827
0.951907
1.06491
1.04943
1.0556
0.913276
0.807795
0.62263
0.348714
0.204962
0.0232934
-0.187211
-0.20638
-0.317307
-0.385508
-0.353743
-0.322946
-0.33092
-0.272069
-0.194516
-0.141212
-0.161625
-0.13718
-0.0918819
-0.0510188
-0.046822
-0.0969588
-0.0744749
-0.0486645
-0.0371121
-0.0325885
-0.0813501
-0.0994793
-0.0965948
-0.113006
-0.0112675
-0.0134737
-0.0233239
-0.0163946
-0.0349957
-0.0127574
-0.0707498
-0.0633015
-0.000599126
-0.0276165
-0.0424432
0.0443977
0.0214681
0.0897686
0.0104533
0.0291999
0.127582
0.133079
0.0845758
0.127811
0.100194
0.1723
0.187006
0.210084
0.242833
0.252321
0.197202
0.215832
0.277274
0.269792
0.275737
0.266214
0.292557
0.380815
0.328391
0.351687
0.344702
0.377959
0.360879
0.404339
0.340035
0.379369
0.359919
0.305032
0.360043
0.312258
0.281715
0.305396
0.313197
0.308295
0.297539
0.241351
0.232163
0.227893
0.219554
0.170387
0.146839
0.125498
0.12185
0.124501
0.105511
0.0585324
0.0668188
0.0768744
-0.00500859
-0.00741465
-0.0459457
0.0168899
0.00482999
-0.046007
-0.0635423
-0.00549701
-0.0579692
-0.119236
-0.041701
-0.0744884
-0.0533427
-0.0667796
-0.138428
-0.113397
-0.0586149
-0.108097
-0.122303
-0.108234
-0.0679715
-0.122162
-0.0816962
-0.15472
-0.160147
-0.135475
-0.16337
-0.116469
-0.0745252
-0.142994
-0.163051
-0.156354
-0.154427
-0.116607
-0.123248
-0.143244
-0.101915
-0.156475
-0.143288
-0.109062
-0.132369
-0.114689
-0.132931
-0.163572
-0.125233
-0.114409
-0.151396
-0.102537
-0.066962
-0.153812
-0.131379
-0.108791
-0.116438
-0.0666526
-0.0880096
-0.0858056
-0.0951577
-0.15502
-0.0938735
-0.125663
-0.146901
-0.148404
-0.0657802
-0.130214
-0.105488
-0.115655
-0.127588
-0.127117
-0.0829452
-0.146684
-0.0729305
-0.122002
-0.0666988
-0.101568
-0.126047
-0.126669
-0.116562
-0.0476454
-0.127383
-0.0602407
-0.0597433
-0.0899544
-0.0747092
-0.102344
-0.105305
-0.0533171
-0.120863
-0.10601
-0.0780913
-0.0787085
-0.0336795
-0.0565281
-0.0159724
-0.0836686
0.0245027
-0.0351094
0.0265826
-0.0323372
0.0665714
0.0700711
0.0236065
0.116654
0.129589
0.0650602
0.147444
0.160556
0.132962
0.168285
0.228916
0.189809
0.161009
0.221229
0.250878
0.19493
0.170155
0.227472
0.223974
0.155652
0.178711
0.0968245
0.0926172
0.0632511
0.0376348
0.0697148
0.0267493
-0.0122843
0.0435474
0.00800327
0.0284353
-0.0159416
0.0135837
-0.0180589
-0.0070708
-0.0354283
-0.0889235
-0.111279
-0.0551958
-0.0458124
-0.114574
-0.101285
-0.0877768
-0.0714099
-0.0897066
-0.154506
-0.0777232
-0.137336
-0.161716
-0.188341
-0.212058
-0.279174
-0.299202
-0.253536
-0.235653
-0.133071
-0.0106285
0.0415261
0.25244
0.42809
0.609021
0.828493
0.958203
1.05006
1.04133
0.992577
0.97434
0.787892
0.606502
0.397044
0.187089
-0.0126089
-0.172163
-0.280931
-0.32601
-0.402023
-0.35974
-0.307745
-0.302312
-0.240419
-0.198859
-0.121263
-0.160024
-0.160064
-0.0607053
-0.0475517
-0.0914606
-0.108645
-0.103024
-0.10082
-0.05486
-0.026452
-0.104247
-0.0464658
-0.0772013
-0.0762568
-0.0209542
-0.0707083
-0.0730323
-0.0325944
-0.0521771
-0.0274137
-0.0386552
0.03991
-0.0184315
0.0242326
-0.00301727
0.0365531
0.0860236
0.0638056
0.118018
0.109917
0.113922
0.126434
0.133088
0.188189
0.18797
0.159253
0.257821
0.224201
0.243532
0.286043
0.29371
0.314861
0.279949
0.310592
0.320497
0.382575
0.407217
0.347889
0.425783
0.395474
0.359365
0.390716
0.358727
0.4164
0.420541
0.389225
0.404424
0.401157
0.342325
0.325322
0.348214
0.387683
0.362263
0.263478
0.33894
0.31708
0.232113
0.291685
0.201239
0.220619
0.191993
0.172003
0.129884
0.0946853
0.0887153
0.122479
0.111352
0.111999
0.0393694
0.00161652
0.042984
-0.00429176
0.0573221
-0.0168589
-0.0303057
-0.00940893
-0.0428629
-0.0733661
0.0168472
0.00393225
0.00546068
-0.00993966
-0.0596901
-0.0917268
-0.0298609
-0.036912
-0.063312
-0.0938289
-0.0784542
-0.0418757
-0.0600133
-0.0372288
-0.0459923
-0.103949
-0.0110613
-0.0920952
-0.0637057
-0.0530853
-0.0428374
-0.0264411
-0.0291605
-0.0762176
-0.0868881
-0.0197297
-0.0374688
-0.0411077
-0.053145
-0.0387304
-0.0610714
-0.0112928
-0.0489466
-0.0499349
-0.0649535
-0.0387386
-0.0357111
-0.0779868
-0.0193744
-0.0705626
-0.0616804
-0.018825
-0.0686818
-0.044603
-0.065085
-0.0710498
-0.00261576
-0.0502296
-0.0341115
-0.0745769
-0.0721889
-0.0477755
-0.0472008
-0.0439936
-0.0115495
-0.0340819
0.00795461
0.0130234
-0.0185626
-0.0388489
-0.0175492
-0.0457448
-0.0330351
0.016126
0.0187371
-0.0592631
0.0290064
-0.062695
-0.0549095
0.0141061
-0.0222155
-0.0365091
0.0285613
0.0335391
0.0282792
-0.0103411
0.0561091
-0.00289207
0.0271143
-8.80208e-005
0.0446169
0.0268215
0.0760744
0.0244155
0.0392319
0.0626764
0.0786267
0.0911406
0.119627
0.128106
0.131081
0.152319
0.16473
0.240273
0.221391
0.255085
0.237585
0.31077
0.238743
0.292607
0.334745
0.316661
0.315889
0.26788
0.31856
0.246355
0.284763
0.255851
0.208421
0.200701
0.165601
0.126202
0.176436
0.128856
0.0800201
0.099595
0.128042
0.068921
0.0796216
0.0501509
0.00720006
0.0232598
0.0120214
-0.0223316
-0.0103734
0.0569229
0.0399301
-0.0294652
-0.024961
0.0492605
0.0363151
-0.0295537
-0.0300462
-0.0239748
-0.0770281
-0.0928259
-0.0770301
-0.142655
-0.120556
-0.121723
-0.149136
-0.0269652
-0.0120989
0.186529
0.322721
0.490332
0.727388
0.91335
1.04358
1.18101
1.20938
1.16371
1.01729
0.814293
0.656157
0.48004
0.219609
0.0519333
-0.090831
-0.152914
-0.21912
-0.289966
-0.230075
-0.285817
-0.251742
-0.119529
-0.110887
-0.0572065
-0.0876533
-0.0470706
-0.0614658
0.00611422
0.0502579
0.00784706
0.0019307
0.0212612
-0.0183292
0.0519323
0.0173413
-0.00353185
0.0236874
0.0163084
0.0232871
-0.000718261
0.0272605
0.0553141
0.029519
0.059931
0.0751687
0.0908246
0.102214
0.0899647
0.0886084
0.0931482
0.14614
0.135546
0.18135
0.209116
0.225734
0.228283
0.204173
0.244381
0.264255
0.274242
0.257458
0.294554
0.363906
0.318909
0.32935
0.379326
0.380347
0.441177
0.441439
0.451849
0.425981
0.406835
0.446731
0.496759
0.449873
0.527119
0.435431
0.515659
0.452935
0.455693
0.470651
0.477686
0.470932
0.498879
0.438962
0.441374
0.427514
0.413039
0.373199
0.388937
0.332968
0.32291
0.342925
0.300079
0.292969
0.253847
0.215827
0.229167
0.208905
0.15949
0.176619
0.162786
0.104679
0.0960406
0.106007
0.161787
0.113009
0.116508
0.0591249
0.0762908
0.0172981
0.0902986
0.0256854
0.0611209
0.053759
0.00238148
0.0582214
0.0122952
-0.000194895
0.0447467
0.0042777
0.0212994
0.0115513
0.0470621
0.0205691
0.0573933
-0.0209352
0.05499
-0.00768074
0.0590387
-0.0287407
0.020033
-0.0335519
-0.0203515
0.0517494
0.030579
0.0503179
0.0378885
-0.0173646
0.0362353
0.0166944
0.0632992
0.0598826
0.042712
0.0369841
-0.00109326
0.0441984
0.0479827
0.0513695
0.0150342
-0.0176363
0.0467407
0.0168518
0.0614205
0.00285116
0.0751121
0.0702196
0.0119703
0.0573668
0.056722
0.0413682
-0.00348602
-0.0125461
0.0695799
0.0430397
-0.00773204
0.00952089
0.0700129
-0.00695152
0.0677821
0.075263
0.0243665
0.0678919
0.0694469
0.00677648
0.0589236
0.0561941
0.0897398
0.02977
0.0652219
0.000639599
0.00146046
0.0486362
0.0350029
0.0356888
0.0974466
0.0738619
0.0400327
0.0332757
0.0885042
0.106196
0.0580303
0.0374079
0.0931661
0.0885684
0.0795848
0.116423
0.131183
0.155321
0.138411
0.179479
0.19389
0.206699
0.234252
0.232596
0.302508
0.294149
0.270421
0.350749
0.267171
0.296662
0.363821
0.362739
0.316341
0.371023
0.372989
0.348422
0.3079
0.305971
0.325341
0.320195
0.265509
0.247363
0.259369
0.232452
0.187033
0.17373
0.166336
0.120071
0.105527
0.0744556
0.12058
0.0743193
0.0888923
0.021049
0.0275624
0.104472
0.0753438
0.0907555
0.0683324
0.0417158
0.0518739
0.0322847
0.018296
-0.00598594
0.0400229
0.0223445
-0.0461321
-0.0763281
-0.0900379
-0.0892992
-0.17549
-0.131603
-0.0756486
-0.0304166
0.0508995
0.178858
0.297915
0.45307
0.71711
0.875913
1.05138
1.17781
1.20384
1.15997
1.08602
0.934749
0.672144
0.534975
0.26372
0.101893
0.00247928
-0.136746
-0.251789
-0.265078
-0.253179
-0.202002
-0.164868
-0.176134
-0.153147
-0.0218011
-0.0321728
-0.0449942
-0.00733994
-0.00411169
0.0335711
0.0441281
-0.00486945
-0.0111737
0.0358969
0.00531463
0.0848451
0.0359963
0.038074
0.0162717
0.0921375
0.0964935
0.0226661
0.0517939
0.0936054
0.047672
0.0721404
0.0816935
0.0876783
0.154091
0.0894543
0.102206
0.190784
0.152313
0.192473
0.141142
0.168132
0.218395
0.208974
0.288086
0.267517
0.236884
0.269099
0.27264
0.346593
0.366581
0.391858
0.338605
0.379963
0.431345
0.38475
0.441633
0.415561
0.4644
0.434543
0.504253
0.438585
0.487601
0.432995
0.462984
0.480622
0.420233
0.456878
0.422905
0.426286
0.437065
0.465631
0.356756
0.365206
0.353601
0.327889
0.353812
0.344568
0.30866
0.244334
0.233772
0.268304
0.214898
0.247523
0.240299
0.203363
0.114278
0.170045
0.114111
0.146126
0.0690171
0.10313
0.0417318
0.0981826
0.0236009
0.0140835
0.00250576
0.0227734
0.0600401
0.0154461
0.0164372
-0.0368218
-0.0058008
0.0161814
0.0403027
-0.0252459
-0.052295
-0.0402129
0.0312379
0.0136939
0.00345047
0.00363357
0.0236901
0.0135994
-0.0113889
0.0143917
0.00453382
-0.016307
0.00853533
-0.0617276
-0.0452329
-0.0270301
-0.0384037
-0.0496689
0.0111357
-0.0470586
0.00513958
-0.0591499
0.00776459
-0.0476017
-0.0739532
-0.0398281
-0.0382658
0.00901026
0.01575
-0.0506962
-0.0184172
-0.0434014
-0.02856
-0.00160775
-0.00874031
-0.0693448
0.0145321
-0.00347667
-0.0311592
-0.0581707
-0.0337242
-0.0751564
-0.020484
-0.0186207
-0.0684612
-0.0362205
-0.0243204
0.0121092
0.000169267
-4.5061e-005
0.0102453
-0.0507643
-0.0406364
0.0221246
-0.0598144
-0.0636608
0.0170381
-0.0620757
0.0011193
-0.000523584
-0.060343
0.0264991
-0.0504
-0.0452013
-0.0201892
-0.0377873
0.00679759
-0.00469321
0.0123364
-0.0446527
-0.018545
0.0485531
0.05162
0.0298396
0.0284125
0.0713341
0.0816698
0.0267823
0.0868472
0.120179
0.131581
0.0739651
0.109008
0.144983
0.167059
0.22859
0.247683
0.228882
0.253794
0.28055
0.235194
0.224718
0.259992
0.299486
0.22473
0.296133
0.231119
0.205462
0.238622
0.204103
0.171963
0.155415
0.120956
0.165569
0.0701499
0.0815689
0.0393011
0.103629
0.00132649
0.00627383
0.00608974
0.0488614
-0.00187873
-0.0382657
-0.0350734
0.0166369
-0.0778067
-0.065348
-0.00953619
-0.0721109
-0.0426363
-0.0687141
-0.0173103
-0.0315577
-0.0269676
-0.107032
-0.116276
-0.118633
-0.181086
-0.152661
-0.219763
-0.26075
-0.230376
-0.164293
-0.117943
0.0704931
0.219637
0.31126
0.516096
0.693642
0.910801
1.02437
1.0526
1.1061
1.01429
0.807756
0.664505
0.472158
0.269557
0.0419689
-0.0641037
-0.251298
-0.321492
-0.286621
-0.317836
-0.265174
-0.302615
-0.196329
-0.229981
-0.137488
-0.160409
-0.119436
-0.103931
-0.0887943
-0.0479515
-0.0342044
-0.008468
-0.0327919
-0.0329473
-0.0540873
-0.0562215
-0.0440088
-0.00254958
-0.0441219
0.00959075
0.0059876
0.0118033
0.0213588
-0.0253717
-0.0464067
-0.0188726
-0.0284362
0.0380226
0.0747121
0.0559388
0.0427945
0.0369304
0.0602274
0.108183
0.100849
0.148422
0.114372
0.106286
0.195992
0.171764
0.171311
0.222853
0.236626
0.291576
0.218009
0.299418
0.332875
0.276608
0.360347
0.365208
0.360923
0.369947
0.366328
0.334511
0.38653
0.365955
0.374247
0.390311
0.416415
0.336648
0.418315
0.398446
0.348228
0.377031
0.311442
0.320207
0.329976
0.277596
0.250037
0.232813
0.247404
0.215637
0.197892
0.232904
0.195963
0.119892
0.175766
0.0692858
0.0488137
0.0508239
0.0436252
0.0357756
0.0699653
0.0657444
-0.0346117
-0.0117617
0.0311279
-0.0514055
-0.0781981
-0.0907002
-0.0771188
-0.0387154
-0.0990985
-0.0473887
-0.0842286
-0.0907922
-0.0344861
-0.125225
-0.111208
-0.0979206
-0.07081
-0.0680675
-0.140479
-0.0671879
-0.11451
-0.105471
-0.138684
-0.11298
-0.135322
-0.118099
-0.0541104
-0.0718591
-0.066822
-0.137493
-0.128588
-0.0895225
-0.147473
-0.120994
-0.0816506
-0.127231
-0.0782976
-0.135705
-0.101297
-0.132856
-0.0931445
-0.119006
-0.128252
-0.101634
-0.0874964
-0.112859
-0.0689262
-0.108025
-0.137131
-0.100339
-0.108491
-0.104424
-0.134377
-0.0644918
-0.130914
-0.109181
-0.0963293
-0.0675626
-0.114189
-0.0567613
-0.0601427
-0.101709
-0.112241
-0.0640217
-0.0938026
-0.0394848
-0.068135
-0.122664
-0.0543998
-0.0621775
-0.120555
-0.110067
-0.0367824
-0.109122
-0.124938
-0.07399
-0.126782
-0.0682849
-0.0794964
-0.0371973
-0.059672
-0.110205
-0.0425847
-0.0935137
-0.00642401
-0.0899844
-0.0156999
-0.00103235
0.0021658
-0.0177281
0.0440072
0.0146366
0.0434054
0.010304
0.0971288
0.07529
0.140102
0.142289
0.103716
0.112594
0.124962
0.149909
0.161599
0.171386
0.201169
0.192024
0.244658
0.220492
0.244976
0.224758
0.212208
0.215896
0.130313
0.114614
0.131148
0.0971519
0.117669
0.0560973
0.0364876
0.0598215
0.0441523
0.0675396
0.0533098
0.0141877
0.0136287
-0.0425542
-0.0731232
-0.016783
-0.0364188
-0.00680759
-0.0324239
-0.0162357
-0.101816
-0.0479604
-0.0951844
-0.0692176
-0.0904933
-0.0922435
-0.0744803
-0.146273
-0.204712
-0.163767
-0.227929
-0.233554
-0.255556
-0.204609
-0.135085
-0.07942
0.0169407
0.205133
0.323821
0.48251
0.673782
0.915197
1.05597
1.09001
1.02217
0.973106
0.760787
0.650928
0.427718
0.160045
0.00366826
-0.0955733
-0.288209
-0.357644
-0.421401
-0.42169
-0.413717
-0.31936
-0.342885
-0.253708
-0.186734
-0.222397
-0.136557
-0.139367
-0.129351
-0.0987582
-0.0532891
-0.13597
-0.12573
-0.0538205
-0.133753
-0.128558
-0.0752239
-0.12664
-0.116329
-0.0825963
-0.0641322
-0.0912641
-0.0687431
-0.00984631
-0.0583378
-0.0330807
-0.0610092
-0.0364962
0.0238337
0.0452138
0.0132541
0.0598878
0.0583679
0.0103636
0.0105492
0.103615
0.0910647
0.0786323
0.142311
0.15387
0.192757
0.158036
0.173687
0.187286
0.17633
0.21973
0.293868
0.238959
0.294185
0.259328
0.351235
0.375256
0.320317
0.323515
0.402337
0.400215
0.399585
0.376299
0.38594
0.386639
0.368532
0.40652
0.333774
0.322595
0.355843
0.349195
0.299305
0.285621
0.263299
0.286074
0.276443
0.211842
0.220686
0.211549
0.161068
0.212092
0.209251
0.148847
0.170588
0.171529
0.0993488
0.136272
0.0682134
0.0307414
0.0162771
0.058441
0.0648911
0.0449515
-0.0111427
0.0334485
-0.0238128
-0.00824777
-0.0373712
-0.0565987
-0.0378124
-0.0391855
-0.0878314
-0.0574636
-0.0212594
-0.0315632
-0.0253882
-0.0614969
-0.0858533
-0.0834794
-0.128274
-0.0962805
-0.0533624
-0.0660328
-0.0859681
-0.036696
-0.0326667
-0.0809823
-0.0855921
-0.0494222
-0.116445
-0.0449633
-0.0521931
-0.0671956
-0.0945838
-0.0653407
-0.0653031
-0.10107
-0.114927
-0.0966053
-0.0195864
-0.036791
-0.112088
-0.0611219
-0.087884
-0.0624498
-0.0541713
-0.106854
-0.0228641
-0.0610794
-0.0890693
-0.00935259
-0.0162033
-0.0426575
-0.067512
-0.010544
-0.0125074
-0.0961418
-0.0915385
-0.0755047
-0.0649618
-0.0120219
-0.0950102
-0.0697537
-0.0225703
-0.0849522
-0.00671618
-0.0753681
-0.0459927
-0.0618798
-0.0345777
0.00872026
-0.0725873
0.000360779
-0.0365854
-0.0252347
-0.0828147
-0.0333445
-0.00740744
-0.0253991
0.0211429
-0.0255747
-0.0687225
-0.0602881
-0.0214286
-0.0488297
-0.0160023
0.00455761
-0.0404827
-0.0377617
-0.0372484
-0.0225532
0.0191148
0.0320693
0.0848546
0.0358594
0.109887
0.0778786
0.0581185
0.147473
0.10657
0.109767
0.18405
0.222942
0.228117
0.205694
0.243911
0.220702
0.267237
0.24366
0.296748
0.270269
0.25476
0.286862
0.237244
0.244885
0.213905
0.232988
0.267076
0.225728
0.184754
0.195518
0.175402
0.130251
0.0962083
0.157956
0.0991062
0.129152
0.0675958
0.10197
0.0772238
0.0380784
-0.0181336
-0.00238022
0.011671
0.0520195
0.0507391
0.0185714
0.000178847
0.0325916
-0.017235
0.00858374
-0.0301384
-0.0635021
-0.045031
-0.108282
-0.0820774
-0.0668903
-0.170346
-0.205493
-0.174062
-0.169266
-0.0778272
-0.0454798
0.0544249
0.11928
0.318074
0.546488
0.714672
0.873188
1.01671
1.18825
1.1984
1.11278
1.00845
0.865078
0.684132
0.441301
0.261557
0.121486
-0.0340081
-0.188485
-0.269261
-0.247149
-0.285323
-0.267897
-0.265501
-0.227636
-0.163883
-0.0558377
-0.112855
-0.0685676
-0.0401261
0.000642671
-0.0454501
-0.0467956
-0.0139892
0.0534738
0.0514599
0.036622
0.0322882
0.0315069
-0.00528939
0.0479277
9.24606e-005
0.0753404
-0.00314412
0.0289388
0.0881193
0.0216386
0.0918107
0.0720403
0.0636683
0.102981
0.0740253
0.133125
0.104643
0.10645
0.132544
0.207226
0.194988
0.218333
0.256017
0.217585
0.221551
0.293594
0.264934
0.315906
0.323843
0.363416
0.332875
0.409683
0.357806
0.345744
0.39087
0.452914
0.464595
0.426434
0.495234
0.47494
0.426103
0.492088
0.463789
0.445132
0.434953
0.509864
0.513966
0.421481
0.438652
0.410737
0.430675
0.421524
0.441528
0.401896
0.430921
0.347797
0.321817
0.317952
0.338276
0.319327
0.295608
0.289623
0.282677
0.21996
0.201636
0.207289
0.211158
0.214517
0.140645
0.116369
0.0918662
0.0999043
0.059624
0.0774368
0.0450397
0.0831875
0.104587
0.0978888
0.054364
0.0698383
0.0301731
-0.0142594
-0.00121596
-0.0025602
0.0271431
-0.0239246
0.00782202
0.021473
0.0460231
0.0278842
0.0403813
-0.0340741
0.0147478
-0.0322646
0.0283714
-0.011586
0.0254727
0.0443445
-0.0428194
5.69674e-005
-0.0086698
0.0364084
0.0354595
0.0247863
-0.00134511
-0.0159307
-0.0267651
-0.0173887
0.0245771
0.0222601
0.0603287
0.0157913
0.0590419
-0.0113493
0.0220948
-0.024794
0.0498751
-0.0144192
0.0249983
0.0505995
0.0647512
0.0354012
-0.00910361
-0.0201335
0.00885978
0.0712108
0.00136656
-0.0033376
-0.0119346
0.0652006
0.0186726
0.0322434
-0.0218827
0.0249646
0.0611625
-0.0159214
0.01087
0.0179343
0.0525602
0.0771386
0.0779745
0.0441482
0.0672211
0.0115243
0.0210071
0.00696487
0.0830393
-0.0138206
0.055695
0.025307
0.0599814
0.00279171
-0.000514356
0.0505986
0.0857568
0.0602265
0.0831321
0.00996828
0.0732774
0.0533532
0.0380878
0.0448119
0.0446645
0.0915166
0.160093
0.164369
0.149033
0.143449
0.121193
0.212906
0.222183
0.174223
0.261104
0.285827
0.227288
0.284329
0.348292
0.299295
0.339761
0.298001
0.330909
0.288354
0.285475
0.32726
0.301493
0.269408
0.321287
0.269102
0.300504
0.223787
0.190885
0.248424
0.194328
0.183568
0.143129
0.13936
0.170638
0.160159
0.0829917
0.116342
0.0626361
0.0702593
0.0274211
0.0404826
0.100796
0.0407736
0.0868853
0.0535682
0.0577601
0.0394693
0.0179198
0.0193117
0.0564209
0.0221051
-0.0502041
-0.0461538
-0.0237857
-0.108502
-0.118211
-0.150059
-0.177223
-0.116602
-0.0770842
0.010866
0.0935933
0.178372
0.367343
0.504211
0.688926
0.918812
1.11726
1.1375
1.17807
1.19501
1.07792
0.892631
0.69266
0.428642
0.28759
0.0601681
-0.0186056
-0.131689
-0.228636
-0.188019
-0.163121
-0.117504
-0.171464
-0.118385
-0.0280928
-0.00268475
0.0137586
-0.008281
0.0870867
0.0977884
0.0343943
0.0129399
0.106013
0.0545032
0.0349165
0.0465094
0.1112
0.117944
0.0328734
0.124037
0.0927236
0.116101
0.13489
0.0544502
0.14791
0.0839893
0.0890815
0.0866052
0.138591
0.119815
0.188563
0.126189
0.207744
0.197379
0.154839
0.222283
0.204981
0.257745
0.261073
0.299859
0.271934
0.357739
0.349326
0.390139
0.355036
0.410319
0.387986
0.434512
0.372512
0.483464
0.402623
0.421944
0.464867
0.498311
0.461634
0.458744
0.446483
0.521792
0.456618
0.459755
0.425021
0.433279
0.456381
0.417446
0.441235
0.450368
0.393577
0.418042
0.395154
0.406739
0.291253
0.337091
0.306057
0.329876
0.285033
0.243718
0.208392
0.203047
0.183408
0.137556
0.159117
0.17371
0.128942
0.0999211
0.0939118
0.113839
0.121812
0.0972916
0.0258995
0.0154485
0.00542299
0.0160717
-0.0125199
-0.00665042
0.0686963
-0.0149771
0.00935325
0.0321099
0.00590275
0.0102076
0.0273008
0.0465858
-0.0127991
0.0118229
-0.0493861
0.0337031
0.0323796
0.0420519
-0.0193606
-0.0238934
0.0122153
0.00257897
0.0258714
0.0350278
0.0390479
0.0308644
-0.0562456
-0.0506622
-0.0232453
-0.0482353
-0.0191639
0.014774
0.0284018
-0.0262363
0.0316643
0.00614641
-0.0168835
0.0243805
0.0404027
-0.0206192
-0.00995876
0.00319621
-0.0176654
0.00401796
0.00229177
0.0221573
0.000742904
-0.0310308
-0.0118375
-0.0150304
-0.0223352
0.0329073
-0.0235425
-0.00442639
-0.0376457
-0.00841416
-0.0418658
-0.00597123
0.0132851
-0.0284199
0.001146
0.0263543
0.032181
0.0200912
-0.035877
0.00578826
0.0139763
-0.0565923
0.00395341
0.0385132
-0.0460563
-0.0309824
0.040206
-0.0298721
-0.0171009
0.0235643
-0.0190997
0.00967903
0.020977
0.0182492
0.032107
0.010446
0.0121059
0.106898
0.0381281
0.0722814
0.133992
0.0831737
0.139744
0.188932
0.213112
0.181376
0.177951
0.185148
0.250186
0.204741
0.217287
0.279712
0.254306
0.240975
0.24445
0.264385
0.220735
0.196962
0.18347
0.219662
0.245893
0.231936
0.154029
0.15583
0.118385
0.115841
0.0571356
0.0593378
0.0539143
0.0801262
0.00313161
0.0160232
0.0590443
-0.0181165
0.0222654
-0.0269255
-0.0158718
-0.00197333
-0.00349372
-0.0319188
-0.0772569
-0.0431644
-0.00591212
-0.00657332
-0.0528319
-0.0444218
-0.115542
-0.0922351
-0.115627
-0.167185
-0.207824
-0.224972
-0.130673
-0.119446
-0.0293971
0.095102
0.200107
0.359015
0.571184
0.713948
0.895802
1.04299
1.07748
1.08145
0.986531
0.800924
0.605773
0.397959
0.192651
0.00627445
-0.152463
-0.213204
-0.283983
-0.368872
-0.378839
-0.35449
-0.322752
-0.246567
-0.206819
-0.190555
-0.106199
-0.157985
-0.109384
-0.0485073
-0.044009
-0.104539
-0.100756
-0.0287102
-0.0549221
-0.0896645
-0.103346
-0.04151
-0.0517538
-0.0932753
-0.085781
-0.025845
-0.0905259
-0.0614269
0.0139715
-0.0732677
0.0109562
0.0175865
-0.0426244
0.0283048
-0.0285359
-0.0162635
0.0678978
0.0787417
0.11287
0.122292
0.11537
0.15278
0.085416
0.155173
0.142633
0.175075
0.231604
0.244002
0.193727
0.196471
0.225336
0.287413
0.277437
0.296673
0.333164
0.304718
0.36724
0.374799
0.33096
0.388309
0.314157
0.39822
0.364611
0.325354
0.370492
0.323466
0.394172
0.367212
0.299856
0.295396
0.311852
0.278669
0.301481
0.230184
0.280946
0.216658
0.185993
0.177724
0.231053
0.136144
0.187977
0.0954174
0.108519
0.137648
0.0405928
0.0893062
0.0616391
0.0534968
-0.0161268
-0.0101527
0.0113334
-0.0298312
-0.0574166
-0.00375883
-0.0316802
-0.0415156
-0.114005
-0.0592562
-0.124405
-0.0616733
-0.0418245
-0.074264
-0.07377
-0.0935664
-0.0594126
-0.147206
-0.0672119
-0.111419
-0.128496
-0.0771128
-0.161223
-0.143072
-0.116599
-0.0755601
-0.0933392
-0.0788232
-0.125106
-0.156255
-0.162657
-0.113993
-0.115078
-0.0861017
-0.0828564
-0.0910855
-0.0865959
-0.129996
-0.104018
-0.0817523
-0.14558
-0.10173
-0.0660687
-0.116683
-0.133626
-0.0658118
-0.140864
-0.0589369
-0.085476
-0.104209
-0.128604
-0.143604
-0.142395
-0.0805067
-0.120517
-0.117068
-0.112771
-0.0698397
-0.0908296
-0.135111
-0.142665
-0.126664
-0.141619
-0.132375
-0.131239
-0.119442
-0.0857197
-0.0716849
-0.0962873
-0.0785921
-0.115726
-0.116796
-0.107085
-0.114118
-0.102899
-0.0982992
-0.11937
-0.0496684
-0.0582625
-0.0438782
-0.0546089
-0.112213
-0.073349
-0.0768947
-0.0497456
-0.0360249
-0.0822142
-0.0317267
-0.0358636
-0.02971
-0.0671245
-0.0675569
-0.0407647
-0.0455759
-0.00648468
0.065982
0.00775978
0.0297562
0.0910644
0.0502952
0.137604
0.146555
0.167457
0.191726
0.20441
0.129679
0.193904
0.223896
0.159016
0.177596
0.198422
0.196119
0.232539
0.162038
0.136702
0.134893
0.122227
0.0883858
0.130418
0.0984054
0.0966642
0.0599614
0.0220888
0.0300444
0.0548659
0.0235603
-0.0149314
0.0130434
0.00521681
-0.0499123
-0.0705227
-0.0760318
-0.089531
-0.0962371
-0.087546
-0.0985192
-0.0313706
-0.0840415
-0.0687659
-0.129244
-0.110319
-0.152462
-0.146818
-0.150868
-0.153173
-0.173324
-0.271219
-0.240779
-0.25335
-0.235446
-0.136034
-0.0265356
0.0333158
0.203386
0.41361
0.597166
0.743105
0.938697
1.0119
1.03544
1.06287
0.944355
0.767191
0.585566
0.351271
0.123992
0.0238341
-0.214823
-0.267469
-0.294861
-0.41222
-0.382622
-0.373828
-0.287484
-0.29039
-0.225335
-0.218541
-0.186673
-0.102467
-0.104827
-0.08113
-0.106336
-0.0927069
-0.0726629
-0.0756544
-0.114554
-0.106679
-0.0858013
-0.0349553
-0.0626477
-0.0554046
-0.0249858
-0.0147899
-0.0677096
-0.0273014
-0.0529963
-0.0235511
-0.0741224
-0.00698601
-0.0383605
-0.0339617
-0.0213428
0.0605352
0.0537683
0.058132
0.0988862
0.0838919
0.0502046
0.0968675
0.108989
0.125528
0.190531
0.172377
0.146452
0.244368
0.2254
0.259316
0.256723
0.28361
0.312429
0.266124
0.283016
0.330234
0.299567
0.359678
0.376071
0.32533
0.360035
0.344629
0.35529
0.397837
0.406078
0.364031
0.385197
0.337625
0.338385
0.310258
0.311561
0.362879
0.277039
0.26651
0.28584
0.228212
0.228187
0.29259
0.231885
0.251906
0.240392
0.137963
0.109016
0.0928182
0.171925
0.0942222
0.0866865
0.0699918
0.0325863
0.0450356
0.0537764
0.0167918
0.0022964
-0.0271395
0.0260111
0.0249371
-0.0456765
0.0122553
-0.00275215
-0.0154499
-0.0386228
-0.0243959
-0.107383
-0.0566621
-0.0197193
-0.0959986
-0.113261
-0.101424
-0.094874
-0.0724606
-0.0994475
-0.0587523
-0.0863453
-0.0454195
-0.105078
-0.0477027
-0.0469457
-0.103601
-0.0552476
-0.0616431
-0.0487723
-0.0512577
-0.0261192
-0.0479764
-0.0360153
-0.0881694
-0.0412987
-0.0242853
-0.096628
-0.0770735
-0.01869
-0.056151
-0.114469
-0.0194889
-0.10882
-0.0164465
-0.0706973
-0.0261972
-0.0215474
-0.0611168
-0.0992673
-0.058157
-0.0435756
-0.0447901
-0.0463809
-0.0360827
-0.0632941
-0.0974092
-0.0915945
-0.000344108
-0.0722419
-0.0932161
-0.0228081
-0.0603182
-0.01845
-0.0153802
-0.0900096
-0.0115417
0.00044108
0.00559567
0.004734
0.000651991
-0.00330376
0.0052114
-0.0279785
0.00446043
-0.0613755
-0.00256743
-0.0377915
-0.0150958
0.0230536
-0.0602043
-0.0353294
-0.0679026
-0.0149516
-0.00116509
-0.0440443
-0.0431077
0.0475536
0.0483972
0.0459655
-0.0167271
-0.0132387
0.0787669
0.0223038
0.113591
0.128982
0.0619472
0.155455
0.125454
0.116306
0.199817
0.151154
0.20395
0.247354
0.282176
0.294085
0.24341
0.312717
0.289655
0.295508
0.293532
0.235813
0.294578
0.316651
0.302856
0.240116
0.216872
0.181859
0.228054
0.168135
0.122195
0.175118
0.153636
0.120567
0.134429
0.128602
0.124804
0.053668
0.025909
0.00593584
0.0269336
0.0602719
0.0383525
-0.00489898
-0.00237066
-0.0252917
-0.0102016
-0.0233481
-0.0137475
-0.0368123
-0.0174777
-0.0626069
-0.0578901
-0.0550739
-0.0820506
-0.149385
-0.162122
-0.135043
-0.158319
-0.1993
-0.161085
-0.0846728
-0.016945
0.127521
0.197134
0.45649
0.568307
0.818488
1.01588
1.09491
1.16547